  Frequency            , I(Rload)             
  1.000000000000e+00  ,2.118705930863e-05  
  1.002305238078e+00  ,2.118705930891e-05  
  1.004615790278e+00  ,2.118705930920e-05  
  1.006931668852e+00  ,2.118705930949e-05  
  1.009252886077e+00  ,2.118705930978e-05  
  1.011579454260e+00  ,2.118705931007e-05  
  1.013911385737e+00  ,2.118705931036e-05  
  1.016248692871e+00  ,2.118705931066e-05  
  1.018591388054e+00  ,2.118705931095e-05  
  1.020939483708e+00  ,2.118705931125e-05  
  1.023292992281e+00  ,2.118705931155e-05  
  1.025651926251e+00  ,2.118705931185e-05  
  1.028016298126e+00  ,2.118705931215e-05  
  1.030386120442e+00  ,2.118705931245e-05  
  1.032761405761e+00  ,2.118705931276e-05  
  1.035142166679e+00  ,2.118705931306e-05  
  1.037528415818e+00  ,2.118705931337e-05  
  1.039920165829e+00  ,2.118705931368e-05  
  1.042317429393e+00  ,2.118705931399e-05  
  1.044720219221e+00  ,2.118705931430e-05  
  1.047128548051e+00  ,2.118705931461e-05  
  1.049542428652e+00  ,2.118705931492e-05  
  1.051961873823e+00  ,2.118705931524e-05  
  1.054386896391e+00  ,2.118705931556e-05  
  1.056817509214e+00  ,2.118705931588e-05  
  1.059253725177e+00  ,2.118705931620e-05  
  1.061695557199e+00  ,2.118705931652e-05  
  1.064143018224e+00  ,2.118705931684e-05  
  1.066596121230e+00  ,2.118705931716e-05  
  1.069054879223e+00  ,2.118705931749e-05  
  1.071519305238e+00  ,2.118705931782e-05  
  1.073989412341e+00  ,2.118705931815e-05  
  1.076465213630e+00  ,2.118705931848e-05  
  1.078946722230e+00  ,2.118705931881e-05  
  1.081433951298e+00  ,2.118705931914e-05  
  1.083926914021e+00  ,2.118705931948e-05  
  1.086425623617e+00  ,2.118705931981e-05  
  1.088930093333e+00  ,2.118705932015e-05  
  1.091440336449e+00  ,2.118705932049e-05  
  1.093956366272e+00  ,2.118705932083e-05  
  1.096478196143e+00  ,2.118705932117e-05  
  1.099005839433e+00  ,2.118705932152e-05  
  1.101539309541e+00  ,2.118705932186e-05  
  1.104078619902e+00  ,2.118705932221e-05  
  1.106623783978e+00  ,2.118705932256e-05  
  1.109174815262e+00  ,2.118705932291e-05  
  1.111731727282e+00  ,2.118705932326e-05  
  1.114294533592e+00  ,2.118705932362e-05  
  1.116863247781e+00  ,2.118705932397e-05  
  1.119437883467e+00  ,2.118705932433e-05  
  1.122018454302e+00  ,2.118705932469e-05  
  1.124604973967e+00  ,2.118705932505e-05  
  1.127197456176e+00  ,2.118705932541e-05  
  1.129795914673e+00  ,2.118705932578e-05  
  1.132400363236e+00  ,2.118705932614e-05  
  1.135010815672e+00  ,2.118705932651e-05  
  1.137627285823e+00  ,2.118705932688e-05  
  1.140249787561e+00  ,2.118705932725e-05  
  1.142878334790e+00  ,2.118705932762e-05  
  1.145512941446e+00  ,2.118705932799e-05  
  1.148153621497e+00  ,2.118705932837e-05  
  1.150800388944e+00  ,2.118705932875e-05  
  1.153453257821e+00  ,2.118705932913e-05  
  1.156112242192e+00  ,2.118705932951e-05  
  1.158777356155e+00  ,2.118705932989e-05  
  1.161448613840e+00  ,2.118705933027e-05  
  1.164126029410e+00  ,2.118705933066e-05  
  1.166809617061e+00  ,2.118705933105e-05  
  1.169499391020e+00  ,2.118705933144e-05  
  1.172195365548e+00  ,2.118705933183e-05  
  1.174897554940e+00  ,2.118705933222e-05  
  1.177605973521e+00  ,2.118705933262e-05  
  1.180320635652e+00  ,2.118705933302e-05  
  1.183041555725e+00  ,2.118705933342e-05  
  1.185768748167e+00  ,2.118705933382e-05  
  1.188502227437e+00  ,2.118705933422e-05  
  1.191242008027e+00  ,2.118705933462e-05  
  1.193988104464e+00  ,2.118705933503e-05  
  1.196740531307e+00  ,2.118705933544e-05  
  1.199499303149e+00  ,2.118705933585e-05  
  1.202264434617e+00  ,2.118705933626e-05  
  1.205035940372e+00  ,2.118705933667e-05  
  1.207813835107e+00  ,2.118705933709e-05  
  1.210598133550e+00  ,2.118705933751e-05  
  1.213388850465e+00  ,2.118705933793e-05  
  1.216186000646e+00  ,2.118705933835e-05  
  1.218989598925e+00  ,2.118705933877e-05  
  1.221799660165e+00  ,2.118705933920e-05  
  1.224616199265e+00  ,2.118705933963e-05  
  1.227439231158e+00  ,2.118705934005e-05  
  1.230268770812e+00  ,2.118705934049e-05  
  1.233104833229e+00  ,2.118705934092e-05  
  1.235947433445e+00  ,2.118705934136e-05  
  1.238796586530e+00  ,2.118705934179e-05  
  1.241652307592e+00  ,2.118705934223e-05  
  1.244514611771e+00  ,2.118705934267e-05  
  1.247383514243e+00  ,2.118705934312e-05  
  1.250259030218e+00  ,2.118705934356e-05  
  1.253141174941e+00  ,2.118705934401e-05  
  1.256029963695e+00  ,2.118705934446e-05  
  1.258925411794e+00  ,2.118705934491e-05  
  1.261827534591e+00  ,2.118705934537e-05  
  1.264736347471e+00  ,2.118705934582e-05  
  1.267651865858e+00  ,2.118705934628e-05  
  1.270574105209e+00  ,2.118705934674e-05  
  1.273503081017e+00  ,2.118705934720e-05  
  1.276438808811e+00  ,2.118705934767e-05  
  1.279381304158e+00  ,2.118705934813e-05  
  1.282330582656e+00  ,2.118705934860e-05  
  1.285286659944e+00  ,2.118705934907e-05  
  1.288249551693e+00  ,2.118705934955e-05  
  1.291219273614e+00  ,2.118705935002e-05  
  1.294195841450e+00  ,2.118705935050e-05  
  1.297179270984e+00  ,2.118705935098e-05  
  1.300169578033e+00  ,2.118705935146e-05  
  1.303166778452e+00  ,2.118705935194e-05  
  1.306170888132e+00  ,2.118705935243e-05  
  1.309181922999e+00  ,2.118705935292e-05  
  1.312199899019e+00  ,2.118705935341e-05  
  1.315224832192e+00  ,2.118705935390e-05  
  1.318256738556e+00  ,2.118705935440e-05  
  1.321295634187e+00  ,2.118705935490e-05  
  1.324341535195e+00  ,2.118705935540e-05  
  1.327394457730e+00  ,2.118705935590e-05  
  1.330454417978e+00  ,2.118705935640e-05  
  1.333521432163e+00  ,2.118705935691e-05  
  1.336595516546e+00  ,2.118705935742e-05  
  1.339676687426e+00  ,2.118705935793e-05  
  1.342764961138e+00  ,2.118705935844e-05  
  1.345860354056e+00  ,2.118705935896e-05  
  1.348962882592e+00  ,2.118705935948e-05  
  1.352072563194e+00  ,2.118705936000e-05  
  1.355189412351e+00  ,2.118705936052e-05  
  1.358313446587e+00  ,2.118705936105e-05  
  1.361444682466e+00  ,2.118705936158e-05  
  1.364583136589e+00  ,2.118705936211e-05  
  1.367728825596e+00  ,2.118705936264e-05  
  1.370881766165e+00  ,2.118705936318e-05  
  1.374041975013e+00  ,2.118705936372e-05  
  1.377209468894e+00  ,2.118705936426e-05  
  1.380384264603e+00  ,2.118705936480e-05  
  1.383566378972e+00  ,2.118705936535e-05  
  1.386755828872e+00  ,2.118705936589e-05  
  1.389952631213e+00  ,2.118705936644e-05  
  1.393156802945e+00  ,2.118705936700e-05  
  1.396368361056e+00  ,2.118705936755e-05  
  1.399587322573e+00  ,2.118705936811e-05  
  1.402813704562e+00  ,2.118705936867e-05  
  1.406047524130e+00  ,2.118705936924e-05  
  1.409288798422e+00  ,2.118705936980e-05  
  1.412537544623e+00  ,2.118705937037e-05  
  1.415793779957e+00  ,2.118705937094e-05  
  1.419057521689e+00  ,2.118705937152e-05  
  1.422328787123e+00  ,2.118705937209e-05  
  1.425607593602e+00  ,2.118705937267e-05  
  1.428893958511e+00  ,2.118705937325e-05  
  1.432187899274e+00  ,2.118705937384e-05  
  1.435489433354e+00  ,2.118705937443e-05  
  1.438798578256e+00  ,2.118705937502e-05  
  1.442115351525e+00  ,2.118705937561e-05  
  1.445439770746e+00  ,2.118705937620e-05  
  1.448771853545e+00  ,2.118705937680e-05  
  1.452111617588e+00  ,2.118705937740e-05  
  1.455459080582e+00  ,2.118705937801e-05  
  1.458814260275e+00  ,2.118705937861e-05  
  1.462177174457e+00  ,2.118705937922e-05  
  1.465547840956e+00  ,2.118705937984e-05  
  1.468926277644e+00  ,2.118705938045e-05  
  1.472312502433e+00  ,2.118705938107e-05  
  1.475706533276e+00  ,2.118705938169e-05  
  1.479108388168e+00  ,2.118705938231e-05  
  1.482518085146e+00  ,2.118705938294e-05  
  1.485935642287e+00  ,2.118705938357e-05  
  1.489361077711e+00  ,2.118705938420e-05  
  1.492794409579e+00  ,2.118705938484e-05  
  1.496235656094e+00  ,2.118705938548e-05  
  1.499684835502e+00  ,2.118705938612e-05  
  1.503141966090e+00  ,2.118705938676e-05  
  1.506607066187e+00  ,2.118705938741e-05  
  1.510080154164e+00  ,2.118705938806e-05  
  1.513561248436e+00  ,2.118705938871e-05  
  1.517050367459e+00  ,2.118705938937e-05  
  1.520547529732e+00  ,2.118705939003e-05  
  1.524052753797e+00  ,2.118705939069e-05  
  1.527566058238e+00  ,2.118705939135e-05  
  1.531087461682e+00  ,2.118705939202e-05  
  1.534616982799e+00  ,2.118705939269e-05  
  1.538154640303e+00  ,2.118705939337e-05  
  1.541700452950e+00  ,2.118705939404e-05  
  1.545254439538e+00  ,2.118705939472e-05  
  1.548816618912e+00  ,2.118705939541e-05  
  1.552387009958e+00  ,2.118705939610e-05  
  1.555965631605e+00  ,2.118705939679e-05  
  1.559552502827e+00  ,2.118705939748e-05  
  1.563147642641e+00  ,2.118705939818e-05  
  1.566751070108e+00  ,2.118705939887e-05  
  1.570362804334e+00  ,2.118705939958e-05  
  1.573982864466e+00  ,2.118705940028e-05  
  1.577611269699e+00  ,2.118705940099e-05  
  1.581248039270e+00  ,2.118705940171e-05  
  1.584893192461e+00  ,2.118705940242e-05  
  1.588546748598e+00  ,2.118705940314e-05  
  1.592208727051e+00  ,2.118705940386e-05  
  1.595879147237e+00  ,2.118705940459e-05  
  1.599558028615e+00  ,2.118705940532e-05  
  1.603245390690e+00  ,2.118705940605e-05  
  1.606941253013e+00  ,2.118705940679e-05  
  1.610645635178e+00  ,2.118705940753e-05  
  1.614358556826e+00  ,2.118705940827e-05  
  1.618080037643e+00  ,2.118705940902e-05  
  1.621810097359e+00  ,2.118705940977e-05  
  1.625548755750e+00  ,2.118705941052e-05  
  1.629296032640e+00  ,2.118705941128e-05  
  1.633051947894e+00  ,2.118705941204e-05  
  1.636816521428e+00  ,2.118705941280e-05  
  1.640589773200e+00  ,2.118705941357e-05  
  1.644371723215e+00  ,2.118705941434e-05  
  1.648162391525e+00  ,2.118705941511e-05  
  1.651961798229e+00  ,2.118705941589e-05  
  1.655769963470e+00  ,2.118705941667e-05  
  1.659586907438e+00  ,2.118705941746e-05  
  1.663412650370e+00  ,2.118705941825e-05  
  1.667247212551e+00  ,2.118705941904e-05  
  1.671090614311e+00  ,2.118705941983e-05  
  1.674942876026e+00  ,2.118705942063e-05  
  1.678804018123e+00  ,2.118705942144e-05  
  1.682674061070e+00  ,2.118705942224e-05  
  1.686553025389e+00  ,2.118705942305e-05  
  1.690440931643e+00  ,2.118705942387e-05  
  1.694337800447e+00  ,2.118705942469e-05  
  1.698243652462e+00  ,2.118705942551e-05  
  1.702158508395e+00  ,2.118705942634e-05  
  1.706082389003e+00  ,2.118705942717e-05  
  1.710015315090e+00  ,2.118705942800e-05  
  1.713957307508e+00  ,2.118705942884e-05  
  1.717908387158e+00  ,2.118705942968e-05  
  1.721868574986e+00  ,2.118705943052e-05  
  1.725837891990e+00  ,2.118705943137e-05  
  1.729816359215e+00  ,2.118705943222e-05  
  1.733803997754e+00  ,2.118705943308e-05  
  1.737800828749e+00  ,2.118705943394e-05  
  1.741806873392e+00  ,2.118705943481e-05  
  1.745822152920e+00  ,2.118705943568e-05  
  1.749846688625e+00  ,2.118705943655e-05  
  1.753880501842e+00  ,2.118705943743e-05  
  1.757923613959e+00  ,2.118705943831e-05  
  1.761976046412e+00  ,2.118705943919e-05  
  1.766037820686e+00  ,2.118705944008e-05  
  1.770108958317e+00  ,2.118705944097e-05  
  1.774189480890e+00  ,2.118705944187e-05  
  1.778279410039e+00  ,2.118705944277e-05  
  1.782378767448e+00  ,2.118705944368e-05  
  1.786487574852e+00  ,2.118705944459e-05  
  1.790605854035e+00  ,2.118705944550e-05  
  1.794733626833e+00  ,2.118705944642e-05  
  1.798870915129e+00  ,2.118705944734e-05  
  1.803017740860e+00  ,2.118705944827e-05  
  1.807174126011e+00  ,2.118705944920e-05  
  1.811340092620e+00  ,2.118705945013e-05  
  1.815515662773e+00  ,2.118705945107e-05  
  1.819700858610e+00  ,2.118705945202e-05  
  1.823895702320e+00  ,2.118705945297e-05  
  1.828100216143e+00  ,2.118705945392e-05  
  1.832314422371e+00  ,2.118705945488e-05  
  1.836538343348e+00  ,2.118705945584e-05  
  1.840772001469e+00  ,2.118705945680e-05  
  1.845015419179e+00  ,2.118705945777e-05  
  1.849268618978e+00  ,2.118705945875e-05  
  1.853531623415e+00  ,2.118705945973e-05  
  1.857804455092e+00  ,2.118705946071e-05  
  1.862087136663e+00  ,2.118705946170e-05  
  1.866379690835e+00  ,2.118705946269e-05  
  1.870682140366e+00  ,2.118705946369e-05  
  1.874994508067e+00  ,2.118705946469e-05  
  1.879316816803e+00  ,2.118705946570e-05  
  1.883649089490e+00  ,2.118705946671e-05  
  1.887991349096e+00  ,2.118705946773e-05  
  1.892343618645e+00  ,2.118705946875e-05  
  1.896705921211e+00  ,2.118705946977e-05  
  1.901078279923e+00  ,2.118705947080e-05  
  1.905460717963e+00  ,2.118705947184e-05  
  1.909853258566e+00  ,2.118705947288e-05  
  1.914255925021e+00  ,2.118705947392e-05  
  1.918668740670e+00  ,2.118705947497e-05  
  1.923091728910e+00  ,2.118705947603e-05  
  1.927524913191e+00  ,2.118705947708e-05  
  1.931968317017e+00  ,2.118705947815e-05  
  1.936421963947e+00  ,2.118705947922e-05  
  1.940885877593e+00  ,2.118705948029e-05  
  1.945360081623e+00  ,2.118705948137e-05  
  1.949844599758e+00  ,2.118705948245e-05  
  1.954339455775e+00  ,2.118705948354e-05  
  1.958844673506e+00  ,2.118705948464e-05  
  1.963360276836e+00  ,2.118705948573e-05  
  1.967886289707e+00  ,2.118705948684e-05  
  1.972422736115e+00  ,2.118705948795e-05  
  1.976969640112e+00  ,2.118705948906e-05  
  1.981527025805e+00  ,2.118705949018e-05  
  1.986094917357e+00  ,2.118705949131e-05  
  1.990673338987e+00  ,2.118705949243e-05  
  1.995262314969e+00  ,2.118705949357e-05  
  1.999861869633e+00  ,2.118705949471e-05  
  2.004472027365e+00  ,2.118705949586e-05  
  2.009092812609e+00  ,2.118705949701e-05  
  2.013724249862e+00  ,2.118705949816e-05  
  2.018366363682e+00  ,2.118705949932e-05  
  2.023019178678e+00  ,2.118705950049e-05  
  2.027682719521e+00  ,2.118705950166e-05  
  2.032357010936e+00  ,2.118705950284e-05  
  2.037042077706e+00  ,2.118705950402e-05  
  2.041737944669e+00  ,2.118705950521e-05  
  2.046444636725e+00  ,2.118705950640e-05  
  2.051162178826e+00  ,2.118705950760e-05  
  2.055890595984e+00  ,2.118705950881e-05  
  2.060629913270e+00  ,2.118705951002e-05  
  2.065380155810e+00  ,2.118705951123e-05  
  2.070141348791e+00  ,2.118705951246e-05  
  2.074913517455e+00  ,2.118705951368e-05  
  2.079696687104e+00  ,2.118705951492e-05  
  2.084490883097e+00  ,2.118705951615e-05  
  2.089296130854e+00  ,2.118705951740e-05  
  2.094112455851e+00  ,2.118705951865e-05  
  2.098939883623e+00  ,2.118705951990e-05  
  2.103778439766e+00  ,2.118705952117e-05  
  2.108628149933e+00  ,2.118705952243e-05  
  2.113489039837e+00  ,2.118705952371e-05  
  2.118361135248e+00  ,2.118705952499e-05  
  2.123244462000e+00  ,2.118705952627e-05  
  2.128139045983e+00  ,2.118705952756e-05  
  2.133044913147e+00  ,2.118705952886e-05  
  2.137962089502e+00  ,2.118705953016e-05  
  2.142890601120e+00  ,2.118705953147e-05  
  2.147830474130e+00  ,2.118705953279e-05  
  2.152781734724e+00  ,2.118705953411e-05  
  2.157744409153e+00  ,2.118705953543e-05  
  2.162718523727e+00  ,2.118705953677e-05  
  2.167704104820e+00  ,2.118705953811e-05  
  2.172701178864e+00  ,2.118705953945e-05  
  2.177709772353e+00  ,2.118705954080e-05  
  2.182729911843e+00  ,2.118705954216e-05  
  2.187761623950e+00  ,2.118705954353e-05  
  2.192804935350e+00  ,2.118705954490e-05  
  2.197859872785e+00  ,2.118705954627e-05  
  2.202926463053e+00  ,2.118705954766e-05  
  2.208004733019e+00  ,2.118705954905e-05  
  2.213094709606e+00  ,2.118705955044e-05  
  2.218196419800e+00  ,2.118705955184e-05  
  2.223309890651e+00  ,2.118705955325e-05  
  2.228435149270e+00  ,2.118705955467e-05  
  2.233572222830e+00  ,2.118705955609e-05  
  2.238721138568e+00  ,2.118705955752e-05  
  2.243881923783e+00  ,2.118705955896e-05  
  2.249054605836e+00  ,2.118705956040e-05  
  2.254239212152e+00  ,2.118705956185e-05  
  2.259435770221e+00  ,2.118705956330e-05  
  2.264644307593e+00  ,2.118705956476e-05  
  2.269864851884e+00  ,2.118705956623e-05  
  2.275097430772e+00  ,2.118705956771e-05  
  2.280342072000e+00  ,2.118705956919e-05  
  2.285598803375e+00  ,2.118705957068e-05  
  2.290867652768e+00  ,2.118705957217e-05  
  2.296148648112e+00  ,2.118705957368e-05  
  2.301441817408e+00  ,2.118705957519e-05  
  2.306747188720e+00  ,2.118705957670e-05  
  2.312064790176e+00  ,2.118705957823e-05  
  2.317394649968e+00  ,2.118705957976e-05  
  2.322736796357e+00  ,2.118705958130e-05  
  2.328091257665e+00  ,2.118705958284e-05  
  2.333458062281e+00  ,2.118705958439e-05  
  2.338837238659e+00  ,2.118705958595e-05  
  2.344228815320e+00  ,2.118705958752e-05  
  2.349632820848e+00  ,2.118705958909e-05  
  2.355049283896e+00  ,2.118705959067e-05  
  2.360478233181e+00  ,2.118705959226e-05  
  2.365919697486e+00  ,2.118705959386e-05  
  2.371373705662e+00  ,2.118705959546e-05  
  2.376840286625e+00  ,2.118705959707e-05  
  2.382319469359e+00  ,2.118705959869e-05  
  2.387811282913e+00  ,2.118705960031e-05  
  2.393315756405e+00  ,2.118705960195e-05  
  2.398832919019e+00  ,2.118705960359e-05  
  2.404362800007e+00  ,2.118705960523e-05  
  2.409905428687e+00  ,2.118705960689e-05  
  2.415460834445e+00  ,2.118705960855e-05  
  2.421029046736e+00  ,2.118705961022e-05  
  2.426610095082e+00  ,2.118705961190e-05  
  2.432204009074e+00  ,2.118705961359e-05  
  2.437810818369e+00  ,2.118705961528e-05  
  2.443430552694e+00  ,2.118705961698e-05  
  2.449063241845e+00  ,2.118705961869e-05  
  2.454708915685e+00  ,2.118705962041e-05  
  2.460367604148e+00  ,2.118705962214e-05  
  2.466039337234e+00  ,2.118705962387e-05  
  2.471724145016e+00  ,2.118705962561e-05  
  2.477422057633e+00  ,2.118705962736e-05  
  2.483133105296e+00  ,2.118705962912e-05  
  2.488857318282e+00  ,2.118705963088e-05  
  2.494594726943e+00  ,2.118705963266e-05  
  2.500345361696e+00  ,2.118705963444e-05  
  2.506109253032e+00  ,2.118705963623e-05  
  2.511886431510e+00  ,2.118705963803e-05  
  2.517676927759e+00  ,2.118705963984e-05  
  2.523480772481e+00  ,2.118705964165e-05  
  2.529297996446e+00  ,2.118705964347e-05  
  2.535128630498e+00  ,2.118705964531e-05  
  2.540972705549e+00  ,2.118705964715e-05  
  2.546830252585e+00  ,2.118705964900e-05  
  2.552701302661e+00  ,2.118705965085e-05  
  2.558585886906e+00  ,2.118705965272e-05  
  2.564484036518e+00  ,2.118705965459e-05  
  2.570395782769e+00  ,2.118705965648e-05  
  2.576321157003e+00  ,2.118705965837e-05  
  2.582260190635e+00  ,2.118705966027e-05  
  2.588212915153e+00  ,2.118705966218e-05  
  2.594179362119e+00  ,2.118705966410e-05  
  2.600159563165e+00  ,2.118705966602e-05  
  2.606153549999e+00  ,2.118705966796e-05  
  2.612161354399e+00  ,2.118705966991e-05  
  2.618183008219e+00  ,2.118705967186e-05  
  2.624218543384e+00  ,2.118705967382e-05  
  2.630267991895e+00  ,2.118705967579e-05  
  2.636331385825e+00  ,2.118705967778e-05  
  2.642408757322e+00  ,2.118705967977e-05  
  2.648500138607e+00  ,2.118705968177e-05  
  2.654605561975e+00  ,2.118705968377e-05  
  2.660725059799e+00  ,2.118705968579e-05  
  2.666858664521e+00  ,2.118705968782e-05  
  2.673006408663e+00  ,2.118705968986e-05  
  2.679168324819e+00  ,2.118705969190e-05  
  2.685344445658e+00  ,2.118705969396e-05  
  2.691534803927e+00  ,2.118705969602e-05  
  2.697739432445e+00  ,2.118705969810e-05  
  2.703958364109e+00  ,2.118705970018e-05  
  2.710191631891e+00  ,2.118705970228e-05  
  2.716439268839e+00  ,2.118705970438e-05  
  2.722701308078e+00  ,2.118705970649e-05  
  2.728977782808e+00  ,2.118705970861e-05  
  2.735268726307e+00  ,2.118705971075e-05  
  2.741574171928e+00  ,2.118705971289e-05  
  2.747894153102e+00  ,2.118705971504e-05  
  2.754228703338e+00  ,2.118705971720e-05  
  2.760577856220e+00  ,2.118705971938e-05  
  2.766941645411e+00  ,2.118705972156e-05  
