  Frequency            , SQRT(S(NTOT(ONOISE)))
  1.000000000000e+00  ,1.000000000000e-15  
  1.002305238078e+00  ,1.447407732344e-10  
  1.004615790278e+00  ,2.048122978741e-10  
  1.006931668852e+00  ,2.509873883329e-10  
  1.009252886077e+00  ,2.899823757551e-10  
  1.011579454260e+00  ,3.243971588098e-10  
  1.013911385737e+00  ,3.555643350928e-10  
  1.016248692871e+00  ,3.842750705515e-10  
  1.018591388054e+00  ,4.110445591849e-10  
  1.020939483708e+00  ,4.362304535832e-10  
  1.023292992281e+00  ,4.600930123141e-10  
  1.025651926251e+00  ,4.828286001018e-10  
  1.028016298126e+00  ,5.045896883438e-10  
  1.030386120442e+00  ,5.254974628137e-10  
  1.032761405761e+00  ,5.456501267154e-10  
  1.035142166679e+00  ,5.651285695441e-10  
  1.037528415818e+00  ,5.840003562741e-10  
  1.039920165829e+00  ,6.023226077460e-10  
  1.042317429393e+00  ,6.201441271017e-10  
  1.044720219221e+00  ,6.375070002493e-10  
  1.047128548051e+00  ,6.544478210988e-10  
  1.049542428652e+00  ,6.709986437712e-10  
  1.051961873823e+00  ,6.871877326328e-10  
  1.054386896391e+00  ,7.030401602561e-10  
  1.056817509214e+00  ,7.185782893634e-10  
  1.059253725177e+00  ,7.338221651263e-10  
  1.061695557199e+00  ,7.487898373888e-10  
  1.064143018224e+00  ,7.634976275265e-10  
  1.066596121230e+00  ,7.779603511384e-10  
  1.069054879223e+00  ,7.921915051865e-10  
  1.071519305238e+00  ,8.062034262822e-10  
  1.073989412341e+00  ,8.200074253724e-10  
  1.076465213630e+00  ,8.336139029901e-10  
  1.078946722230e+00  ,8.470324483862e-10  
  1.081433951298e+00  ,8.602719252164e-10  
  1.083926914021e+00  ,8.733405459447e-10  
  1.086425623617e+00  ,8.862459367269e-10  
  1.088930093333e+00  ,8.989951942216e-10  
  1.091440336449e+00  ,9.115949355227e-10  
  1.093956366272e+00  ,9.240513422038e-10  
  1.096478196143e+00  ,9.363701993007e-10  
  1.099005839433e+00  ,9.485569299257e-10  
  1.101539309541e+00  ,9.606166260971e-10  
  1.104078619902e+00  ,9.725540762766e-10  
  1.106623783978e+00  ,9.843737900343e-10  
  1.109174815262e+00  ,9.960800202001e-10  
  1.111731727282e+00  ,1.007676782806e-09  
  1.114294533592e+00  ,1.019167875082e-09  
  1.116863247781e+00  ,1.030556891737e-09  
  1.119437883467e+00  ,1.041847239712e-09  
  1.122018454302e+00  ,1.053042151590e-09  
  1.124604973967e+00  ,1.064144697789e-09  
  1.127197456176e+00  ,1.075157797696e-09  
  1.129795914673e+00  ,1.086084229827e-09  
  1.132400363236e+00  ,1.096926641138e-09  
  1.135010815672e+00  ,1.107687555545e-09  
  1.137627285823e+00  ,1.118369381769e-09  
  1.140249787561e+00  ,1.128974420530e-09  
  1.142878334790e+00  ,1.139504871192e-09  
  1.145512941446e+00  ,1.149962837882e-09  
  1.148153621497e+00  ,1.160350335145e-09  
  1.150800388944e+00  ,1.170669293180e-09  
  1.153453257821e+00  ,1.180921562682e-09  
  1.156112242192e+00  ,1.191108919342e-09  
  1.158777356155e+00  ,1.201233068018e-09  
  1.161448613840e+00  ,1.211295646616e-09  
  1.164126029410e+00  ,1.221298229704e-09  
  1.166809617061e+00  ,1.231242331880e-09  
  1.169499391020e+00  ,1.241129410907e-09  
  1.172195365548e+00  ,1.250960870649e-09  
  1.174897554940e+00  ,1.260738063812e-09  
  1.177605973521e+00  ,1.270462294509e-09  
  1.180320635652e+00  ,1.280134820662e-09  
  1.183041555725e+00  ,1.289756856251e-09  
  1.185768748167e+00  ,1.299329573436e-09  
  1.188502227437e+00  ,1.308854104531e-09  
  1.191242008027e+00  ,1.318331543878e-09  
  1.193988104464e+00  ,1.327762949599e-09  
  1.196740531307e+00  ,1.337149345246e-09  
  1.199499303149e+00  ,1.346491721364e-09  
  1.202264434617e+00  ,1.355791036952e-09  
  1.205035940372e+00  ,1.365048220856e-09  
  1.207813835107e+00  ,1.374264173073e-09  
  1.210598133550e+00  ,1.383439765986e-09  
  1.213388850465e+00  ,1.392575845541e-09  
  1.216186000646e+00  ,1.401673232344e-09  
  1.218989598925e+00  ,1.410732722719e-09  
  1.221799660165e+00  ,1.419755089693e-09  
  1.224616199265e+00  ,1.428741083944e-09  
  1.227439231158e+00  ,1.437691434688e-09  
  1.230268770812e+00  ,1.446606850534e-09  
  1.233104833229e+00  ,1.455488020287e-09  
  1.235947433445e+00  ,1.464335613712e-09  
  1.238796586530e+00  ,1.473150282264e-09  
  1.241652307592e+00  ,1.481932659784e-09  
  1.244514611771e+00  ,1.490683363153e-09  
  1.247383514243e+00  ,1.499402992924e-09  
  1.250259030218e+00  ,1.508092133920e-09  
  1.253141174941e+00  ,1.516751355807e-09  
  1.256029963695e+00  ,1.525381213636e-09  
  1.258925411794e+00  ,1.533982248363e-09  
  1.261827534591e+00  ,1.542554987349e-09  
  1.264736347471e+00  ,1.551099944832e-09  
  1.267651865858e+00  ,1.559617622378e-09  
  1.270574105209e+00  ,1.568108509320e-09  
  1.273503081017e+00  ,1.576573083167e-09  
  1.276438808811e+00  ,1.585011810006e-09  
  1.279381304158e+00  ,1.593425144878e-09  
  1.282330582656e+00  ,1.601813532143e-09  
  1.285286659944e+00  ,1.610177405831e-09  
  1.288249551693e+00  ,1.618517189974e-09  
  1.291219273614e+00  ,1.626833298925e-09  
  1.294195841450e+00  ,1.635126137671e-09  
  1.297179270984e+00  ,1.643396102122e-09  
  1.300169578033e+00  ,1.651643579399e-09  
  1.303166778452e+00  ,1.659868948104e-09  
  1.306170888132e+00  ,1.668072578580e-09  
  1.309181922999e+00  ,1.676254833167e-09  
  1.312199899019e+00  ,1.684416066438e-09  
  1.315224832192e+00  ,1.692556625434e-09  
  1.318256738556e+00  ,1.700676849889e-09  
  1.321295634187e+00  ,1.708777072443e-09  
  1.324341535195e+00  ,1.716857618849e-09  
  1.327394457730e+00  ,1.724918808172e-09  
  1.330454417978e+00  ,1.732960952985e-09  
  1.333521432163e+00  ,1.740984359547e-09  
  1.336595516546e+00  ,1.748989327989e-09  
  1.339676687426e+00  ,1.756976152481e-09  
  1.342764961138e+00  ,1.764945121398e-09  
  1.345860354056e+00  ,1.772896517484e-09  
  1.348962882592e+00  ,1.780830618002e-09  
  1.352072563194e+00  ,1.788747694885e-09  
  1.355189412351e+00  ,1.796648014879e-09  
  1.358313446587e+00  ,1.804531839684e-09  
  1.361444682466e+00  ,1.812399426086e-09  
  1.364583136589e+00  ,1.820251026087e-09  
  1.367728825596e+00  ,1.828086887032e-09  
  1.370881766165e+00  ,1.835907251729e-09  
  1.374041975013e+00  ,1.843712358564e-09  
  1.377209468894e+00  ,1.851502441621e-09  
  1.380384264603e+00  ,1.859277730783e-09  
  1.383566378972e+00  ,1.867038451846e-09  
  1.386755828872e+00  ,1.874784826615e-09  
  1.389952631213e+00  ,1.882517073009e-09  
  1.393156802945e+00  ,1.890235405153e-09  
  1.396368361056e+00  ,1.897940033476e-09  
  1.399587322573e+00  ,1.905631164796e-09  
  1.402813704562e+00  ,1.913309002410e-09  
  1.406047524130e+00  ,1.920973746182e-09  
  1.409288798422e+00  ,1.928625592619e-09  
  1.412537544623e+00  ,1.936264734956e-09  
  1.415793779957e+00  ,1.943891363231e-09  
  1.419057521689e+00  ,1.951505664361e-09  
  1.422328787123e+00  ,1.959107822212e-09  
  1.425607593602e+00  ,1.966698017676e-09  
  1.428893958511e+00  ,1.974276428732e-09  
  1.432187899274e+00  ,1.981843230519e-09  
  1.435489433354e+00  ,1.989398595395e-09  
  1.438798578256e+00  ,1.996942693005e-09  
  1.442115351525e+00  ,2.004475690339e-09  
  1.445439770746e+00  ,2.011997751791e-09  
  1.448771853545e+00  ,2.019509039219e-09  
  1.452111617588e+00  ,2.027009711998e-09  
  1.455459080582e+00  ,2.034499927077e-09  
  1.458814260275e+00  ,2.041979839030e-09  
  1.462177174457e+00  ,2.049449600109e-09  
  1.465547840956e+00  ,2.056909360291e-09  
  1.468926277644e+00  ,2.064359267331e-09  
  1.472312502433e+00  ,2.071799466806e-09  
  1.475706533276e+00  ,2.079230102164e-09  
  1.479108388168e+00  ,2.086651314765e-09  
  1.482518085146e+00  ,2.094063243927e-09  
  1.485935642287e+00  ,2.101466026968e-09  
  1.489361077711e+00  ,2.108859799249e-09  
  1.492794409579e+00  ,2.116244694211e-09  
  1.496235656094e+00  ,2.123620843417e-09  
  1.499684835502e+00  ,2.130988376588e-09  
  1.503141966090e+00  ,2.138347421643e-09  
  1.506607066187e+00  ,2.145698104732e-09  
  1.510080154164e+00  ,2.153040550274e-09  
  1.513561248436e+00  ,2.160374880990e-09  
  1.517050367459e+00  ,2.167701217938e-09  
  1.520547529732e+00  ,2.175019680544e-09  
  1.524052753797e+00  ,2.182330386634e-09  
  1.527566058238e+00  ,2.189633452466e-09  
  1.531087461682e+00  ,2.196928992763e-09  
  1.534616982799e+00  ,2.204217120736e-09  
  1.538154640303e+00  ,2.211497948118e-09  
  1.541700452950e+00  ,2.218771585192e-09  
  1.545254439538e+00  ,2.226038140817e-09  
  1.548816618912e+00  ,2.233297722455e-09  
  1.552387009958e+00  ,2.240550436198e-09  
  1.555965631605e+00  ,2.247796386791e-09  
  1.559552502827e+00  ,2.255035677663e-09  
  1.563147642641e+00  ,2.262268410944e-09  
  1.566751070108e+00  ,2.269494687495e-09  
  1.570362804334e+00  ,2.276714606927e-09  
  1.573982864466e+00  ,2.283928267626e-09  
  1.577611269699e+00  ,2.291135766775e-09  
  1.581248039270e+00  ,2.298337200374e-09  
  1.584893192461e+00  ,2.305532663265e-09  
  1.588546748598e+00  ,2.312722249148e-09  
  1.592208727051e+00  ,2.319906050604e-09  
  1.595879147237e+00  ,2.327084159115e-09  
  1.599558028615e+00  ,2.334256665083e-09  
  1.603245390690e+00  ,2.341423657848e-09  
  1.606941253013e+00  ,2.348585225707e-09  
  1.610645635178e+00  ,2.355741455934e-09  
  1.614358556826e+00  ,2.362892434794e-09  
  1.618080037643e+00  ,2.370038247563e-09  
  1.621810097359e+00  ,2.377178978545e-09  
  1.625548755750e+00  ,2.384314711087e-09  
  1.629296032640e+00  ,2.391445527597e-09  
  1.633051947894e+00  ,2.398571509558e-09  
  1.636816521428e+00  ,2.405692737546e-09  
  1.640589773200e+00  ,2.412809291243e-09  
  1.644371723215e+00  ,2.419921249452e-09  
  1.648162391525e+00  ,2.427028690113e-09  
  1.651961798229e+00  ,2.434131690317e-09  
  1.655769963470e+00  ,2.441230326318e-09  
  1.659586907438e+00  ,2.448324673550e-09  
  1.663412650370e+00  ,2.455414806637e-09  
  1.667247212551e+00  ,2.462500799409e-09  
  1.671090614311e+00  ,2.469582724914e-09  
  1.674942876026e+00  ,2.476660655427e-09  
  1.678804018123e+00  ,2.483734662471e-09  
  1.682674061070e+00  ,2.490804816817e-09  
  1.686553025389e+00  ,2.497871188509e-09  
  1.690440931643e+00  ,2.504933846864e-09  
  1.694337800447e+00  ,2.511992860492e-09  
  1.698243652462e+00  ,2.519048297302e-09  
  1.702158508395e+00  ,2.526100224514e-09  
  1.706082389003e+00  ,2.533148708673e-09  
  1.710015315090e+00  ,2.540193815653e-09  
  1.713957307508e+00  ,2.547235610674e-09  
  1.717908387158e+00  ,2.554274158309e-09  
  1.721868574986e+00  ,2.561309522493e-09  
  1.725837891990e+00  ,2.568341766535e-09  
  1.729816359215e+00  ,2.575370953126e-09  
  1.733803997754e+00  ,2.582397144348e-09  
  1.737800828749e+00  ,2.589420401684e-09  
  1.741806873392e+00  ,2.596440786030e-09  
  1.745822152920e+00  ,2.603458357697e-09  
  1.749846688625e+00  ,2.610473176425e-09  
  1.753880501842e+00  ,2.617485301389e-09  
  1.757923613959e+00  ,2.624494791211e-09  
  1.761976046412e+00  ,2.631501703963e-09  
  1.766037820686e+00  ,2.638506097178e-09  
  1.770108958317e+00  ,2.645508027858e-09  
  1.774189480890e+00  ,2.652507552481e-09  
  1.778279410039e+00  ,2.659504727009e-09  
  1.782378767448e+00  ,2.666499606894e-09  
  1.786487574852e+00  ,2.673492247089e-09  
  1.790605854035e+00  ,2.680482702050e-09  
  1.794733626833e+00  ,2.687471025749e-09  
  1.798870915129e+00  ,2.694457271674e-09  
  1.803017740860e+00  ,2.701441492844e-09  
  1.807174126011e+00  ,2.708423741808e-09  
  1.811340092620e+00  ,2.715404070656e-09  
  1.815515662773e+00  ,2.722382531025e-09  
  1.819700858610e+00  ,2.729359174104e-09  
  1.823895702320e+00  ,2.736334050641e-09  
  1.828100216143e+00  ,2.743307210951e-09  
  1.832314422371e+00  ,2.750278704917e-09  
  1.836538343348e+00  ,2.757248582001e-09  
  1.840772001469e+00  ,2.764216891247e-09  
  1.845015419179e+00  ,2.771183681290e-09  
  1.849268618978e+00  ,2.778149000356e-09  
  1.853531623415e+00  ,2.785112896272e-09  
  1.857804455092e+00  ,2.792075416472e-09  
  1.862087136663e+00  ,2.799036607998e-09  
  1.866379690835e+00  ,2.805996517508e-09  
  1.870682140366e+00  ,2.812955191284e-09  
  1.874994508067e+00  ,2.819912675230e-09  
  1.879316816803e+00  ,2.826869014884e-09  
  1.883649089490e+00  ,2.833824255419e-09  
  1.887991349096e+00  ,2.840778441647e-09  
  1.892343618645e+00  ,2.847731618029e-09  
  1.896705921211e+00  ,2.854683828674e-09  
  1.901078279923e+00  ,2.861635117347e-09  
  1.905460717963e+00  ,2.868585527470e-09  
  1.909853258566e+00  ,2.875535102131e-09  
  1.914255925021e+00  ,2.882483884086e-09  
  1.918668740670e+00  ,2.889431915762e-09  
  1.923091728910e+00  ,2.896379239265e-09  
  1.927524913191e+00  ,2.903325896379e-09  
  1.931968317017e+00  ,2.910271928576e-09  
  1.936421963947e+00  ,2.917217377015e-09  
  1.940885877593e+00  ,2.924162282548e-09  
  1.945360081623e+00  ,2.931106685726e-09  
  1.949844599758e+00  ,2.938050626797e-09  
  1.954339455775e+00  ,2.944994145716e-09  
  1.958844673506e+00  ,2.951937282147e-09  
  1.963360276836e+00  ,2.958880075465e-09  
  1.967886289707e+00  ,2.965822564759e-09  
  1.972422736115e+00  ,2.972764788839e-09  
  1.976969640112e+00  ,2.979706786238e-09  
  1.981527025805e+00  ,2.986648595212e-09  
  1.986094917357e+00  ,2.993590253751e-09  
  1.990673338987e+00  ,3.000531799574e-09  
  1.995262314969e+00  ,3.007473270137e-09  
  1.999861869633e+00  ,3.014414702638e-09  
  2.004472027365e+00  ,3.021356134012e-09  
  2.009092812609e+00  ,3.028297600946e-09  
  2.013724249862e+00  ,3.035239139871e-09  
  2.018366363682e+00  ,3.042180786972e-09  
  2.023019178678e+00  ,3.049122578189e-09  
  2.027682719521e+00  ,3.056064549218e-09  
  2.032357010936e+00  ,3.063006735518e-09  
  2.037042077706e+00  ,3.069949172310e-09  
  2.041737944669e+00  ,3.076891894583e-09  
  2.046444636725e+00  ,3.083834937092e-09  
  2.051162178826e+00  ,3.090778334368e-09  
  2.055890595984e+00  ,3.097722120715e-09  
  2.060629913270e+00  ,3.104666330213e-09  
  2.065380155810e+00  ,3.111610996724e-09  
  2.070141348791e+00  ,3.118556153891e-09  
  2.074913517455e+00  ,3.125501835144e-09  
  2.079696687104e+00  ,3.132448073698e-09  
  2.084490883097e+00  ,3.139394902562e-09  
  2.089296130854e+00  ,3.146342354534e-09  
  2.094112455851e+00  ,3.153290462208e-09  
  2.098939883623e+00  ,3.160239257977e-09  
  2.103778439766e+00  ,3.167188774032e-09  
  2.108628149933e+00  ,3.174139042366e-09  
  2.113489039837e+00  ,3.181090094778e-09  
  2.118361135248e+00  ,3.188041962872e-09  
  2.123244462000e+00  ,3.194994678061e-09  
  2.128139045983e+00  ,3.201948271570e-09  
  2.133044913147e+00  ,3.208902774436e-09  
  2.137962089502e+00  ,3.215858217513e-09  
  2.142890601120e+00  ,3.222814631470e-09  
  2.147830474130e+00  ,3.229772046797e-09  
  2.152781734724e+00  ,3.236730493805e-09  
  2.157744409153e+00  ,3.243690002629e-09  
  2.162718523727e+00  ,3.250650603229e-09  
  2.167704104820e+00  ,3.257612325393e-09  
  2.172701178864e+00  ,3.264575198738e-09  
  2.177709772353e+00  ,3.271539252712e-09  
  2.182729911843e+00  ,3.278504516597e-09  
  2.187761623950e+00  ,3.285471019509e-09  
  2.192804935350e+00  ,3.292438790402e-09  
  2.197859872785e+00  ,3.299407858068e-09  
  2.202926463053e+00  ,3.306378251140e-09  
  2.208004733019e+00  ,3.313349998092e-09  
  2.213094709606e+00  ,3.320323127243e-09  
  2.218196419800e+00  ,3.327297666757e-09  
  2.223309890651e+00  ,3.334273644647e-09  
  2.228435149270e+00  ,3.341251088773e-09  
  2.233572222830e+00  ,3.348230026847e-09  
  2.238721138568e+00  ,3.355210486432e-09  
  2.243881923783e+00  ,3.362192494946e-09  
  2.249054605836e+00  ,3.369176079662e-09  
  2.254239212152e+00  ,3.376161267712e-09  
  2.259435770221e+00  ,3.383148086082e-09  
  2.264644307593e+00  ,3.390136561624e-09  
  2.269864851884e+00  ,3.397126721046e-09  
  2.275097430772e+00  ,3.404118590923e-09  
  2.280342072000e+00  ,3.411112197693e-09  
  2.285598803375e+00  ,3.418107567660e-09  
  2.290867652768e+00  ,3.425104726996e-09  
  2.296148648112e+00  ,3.432103701742e-09  
  2.301441817408e+00  ,3.439104517809e-09  
  2.306747188720e+00  ,3.446107200978e-09  
  2.312064790176e+00  ,3.453111776907e-09  
  2.317394649968e+00  ,3.460118271123e-09  
  2.322736796357e+00  ,3.467126709033e-09  
  2.328091257665e+00  ,3.474137115920e-09  
  2.333458062281e+00  ,3.481149516943e-09  
  2.338837238659e+00  ,3.488163937144e-09  
  2.344228815320e+00  ,3.495180401442e-09  
  2.349632820848e+00  ,3.502198934642e-09  
  2.355049283896e+00  ,3.509219561430e-09  
  2.360478233181e+00  ,3.516242306376e-09  
  2.365919697486e+00  ,3.523267193937e-09  
  2.371373705662e+00  ,3.530294248456e-09  
  2.376840286625e+00  ,3.537323494165e-09  
  2.382319469359e+00  ,3.544354955184e-09  
  2.387811282913e+00  ,3.551388655524e-09  
  2.393315756405e+00  ,3.558424619088e-09  
  2.398832919019e+00  ,3.565462869671e-09  
  2.404362800007e+00  ,3.572503430962e-09  
  2.409905428687e+00  ,3.579546326543e-09  
  2.415460834445e+00  ,3.586591579894e-09  
  2.421029046736e+00  ,3.593639214393e-09  
  2.426610095082e+00  ,3.600689253312e-09  
  2.432204009074e+00  ,3.607741719825e-09  
  2.437810818369e+00  ,3.614796637005e-09  
  2.443430552694e+00  ,3.621854027828e-09  
  2.449063241845e+00  ,3.628913915169e-09  
  2.454708915685e+00  ,3.635976321807e-09  
  2.460367604148e+00  ,3.643041270427e-09  
  2.466039337234e+00  ,3.650108783617e-09  
  2.471724145016e+00  ,3.657178883871e-09  
  2.477422057633e+00  ,3.664251593590e-09  
  2.483133105296e+00  ,3.671326935085e-09  
  2.488857318282e+00  ,3.678404930572e-09  
  2.494594726943e+00  ,3.685485602180e-09  
  2.500345361696e+00  ,3.692568971946e-09  
  2.506109253032e+00  ,3.699655061822e-09  
  2.511886431510e+00  ,3.706743893668e-09  
  2.517676927759e+00  ,3.713835489259e-09  
  2.523480772481e+00  ,3.720929870287e-09  
  2.529297996446e+00  ,3.728027058354e-09  
  2.535128630498e+00  ,3.735127074981e-09  
  2.540972705549e+00  ,3.742229941604e-09  
  2.546830252585e+00  ,3.749335679579e-09  
  2.552701302661e+00  ,3.756444310177e-09  
  2.558585886906e+00  ,3.763555854591e-09  
  2.564484036518e+00  ,3.770670333931e-09  
  2.570395782769e+00  ,3.777787769230e-09  
  2.576321157003e+00  ,3.784908181441e-09  
  2.582260190635e+00  ,3.792031591441e-09  
  2.588212915153e+00  ,3.799158020027e-09  
  2.594179362119e+00  ,3.806287487924e-09  
  2.600159563165e+00  ,3.813420015777e-09  
  2.606153549999e+00  ,3.820555624159e-09  
  2.612161354399e+00  ,3.827694333569e-09  
  2.618183008219e+00  ,3.834836164430e-09  
  2.624218543384e+00  ,3.841981137097e-09  
  2.630267991895e+00  ,3.849129271848e-09  
  2.636331385825e+00  ,3.856280588893e-09  
  2.642408757322e+00  ,3.863435108372e-09  
  2.648500138607e+00  ,3.870592850352e-09  
  2.654605561975e+00  ,3.877753834834e-09  
  2.660725059799e+00  ,3.884918081749e-09  
  2.666858664521e+00  ,3.892085610960e-09  
  2.673006408663e+00  ,3.899256442265e-09  
  2.679168324819e+00  ,3.906430595392e-09  
  2.685344445658e+00  ,3.913608090006e-09  
  2.691534803927e+00  ,3.920788945705e-09  
  2.697739432445e+00  ,3.927973182024e-09  
  2.703958364109e+00  ,3.935160818434e-09  
  2.710191631891e+00  ,3.942351874340e-09  
  2.716439268839e+00  ,3.949546369088e-09  
  2.722701308078e+00  ,3.956744321958e-09  
  2.728977782808e+00  ,3.963945752173e-09  
  2.735268726307e+00  ,3.971150678890e-09  
  2.741574171928e+00  ,3.978359121210e-09  
  2.747894153102e+00  ,3.985571098172e-09  
  2.754228703338e+00  ,3.992786628756e-09  
  2.760577856220e+00  ,4.000005731883e-09  
  2.766941645411e+00  ,4.007228426417e-09  
